data length,16384
frequency,0.010000000
amp,19.954000000
offset,0.000000000
phase,0.000000000







xpos,value
0.000000e+000,0.00000
6.103516e-003,0.00000
1.220703e-002,0.00152
1.831055e-002,0.00304
2.441406e-002,0.00456
3.051758e-002,0.00608
3.662109e-002,0.00760
4.272461e-002,0.00912
4.882813e-002,0.01063
5.493164e-002,0.01215
6.103516e-002,0.01367
6.713867e-002,0.01519
7.324219e-002,0.01671
7.934570e-002,0.01823
8.544922e-002,0.01975
9.155273e-002,0.02127
9.765625e-002,0.02279
1.037598e-001,0.02431
1.098633e-001,0.02583
1.159668e-001,0.02735
1.220703e-001,0.02887
1.281738e-001,0.03038
1.342773e-001,0.03190
1.403809e-001,0.03342
1.464844e-001,0.03494
1.525879e-001,0.03646
1.586914e-001,0.03798
1.647949e-001,0.03950
1.708984e-001,0.04102
1.770020e-001,0.04254
1.831055e-001,0.04406
1.892090e-001,0.04558
1.953125e-001,0.04710
2.014160e-001,0.04862
2.075195e-001,0.05013
2.136230e-001,0.05165
2.197266e-001,0.05317
2.258301e-001,0.05469
2.319336e-001,0.05621
2.380371e-001,0.05773
2.441406e-001,0.05925
2.502441e-001,0.06077
2.563477e-001,0.06229
2.624512e-001,0.06381
2.685547e-001,0.06533
2.746582e-001,0.06685
2.807617e-001,0.06837
2.868652e-001,0.06988
2.929688e-001,0.07140
2.990723e-001,0.07292
3.051758e-001,0.07444
3.112793e-001,0.07596
3.173828e-001,0.07748
3.234863e-001,0.07900
3.295898e-001,0.08052
3.356934e-001,0.08204
3.417969e-001,0.08356
3.479004e-001,0.08508
3.540039e-001,0.08660
3.601074e-001,0.08812
3.662109e-001,0.08963
3.723145e-001,0.09115
3.784180e-001,0.09267
3.845215e-001,0.09419
3.906250e-001,0.09571
3.967285e-001,0.09723
4.028320e-001,0.09875
4.089355e-001,0.10027
4.150391e-001,0.10179
4.211426e-001,0.10331
4.272461e-001,0.10483
4.333496e-001,0.10635
4.394531e-001,0.10787
4.455566e-001,0.10938
4.516602e-001,0.11090
4.577637e-001,0.11242
4.638672e-001,0.11394
4.699707e-001,0.11546
4.760742e-001,0.11698
4.821777e-001,0.11850
4.882813e-001,0.12002
4.943848e-001,0.12154
5.004883e-001,0.12306
5.065918e-001,0.12458
5.126953e-001,0.12610
5.187988e-001,0.12762
5.249023e-001,0.12913
5.310059e-001,0.13065
5.371094e-001,0.13217
5.432129e-001,0.13369
5.493164e-001,0.13521
5.554199e-001,0.13673
5.615234e-001,0.13825
5.676270e-001,0.13977
5.737305e-001,0.14129
5.798340e-001,0.14281
5.859375e-001,0.14433
5.920410e-001,0.14585
5.981445e-001,0.14737
6.042480e-001,0.14888
6.103516e-001,0.15040
6.164551e-001,0.15192
6.225586e-001,0.15344
6.286621e-001,0.15496
6.347656e-001,0.15648
6.408691e-001,0.15800
6.469727e-001,0.15952
6.530762e-001,0.16104
6.591797e-001,0.16256
6.652832e-001,0.16408
6.713867e-001,0.16560
6.774902e-001,0.16712
6.835938e-001,0.16863
6.896973e-001,0.17015
6.958008e-001,0.17167
7.019043e-001,0.17319
7.080078e-001,0.17471
7.141113e-001,0.17623
7.202148e-001,0.17775
7.263184e-001,0.17927
7.324219e-001,0.18079
7.385254e-001,0.18231
7.446289e-001,0.18383
7.507324e-001,0.18535
7.568359e-001,0.18687
7.629395e-001,0.18838
7.690430e-001,0.18990
7.751465e-001,0.19142
7.812500e-001,0.19294
7.873535e-001,0.19446
7.934570e-001,0.19598
7.995605e-001,0.19750
8.056641e-001,0.19902
8.117676e-001,0.20054
8.178711e-001,0.20206
8.239746e-001,0.20358
8.300781e-001,0.20510
8.361816e-001,0.20662
8.422852e-001,0.20813
8.483887e-001,0.20965
8.544922e-001,0.21117
8.605957e-001,0.21269
8.666992e-001,0.21421
8.728027e-001,0.21573
8.789063e-001,0.21725
8.850098e-001,0.21877
8.911133e-001,0.22029
8.972168e-001,0.22181
9.033203e-001,0.22333
9.094238e-001,0.22485
9.155273e-001,0.22637
9.216309e-001,0.22788
9.277344e-001,0.22940
9.338379e-001,0.23092
9.399414e-001,0.23244
9.460449e-001,0.23396
9.521484e-001,0.23548
9.582520e-001,0.23700
9.643555e-001,0.23852
9.704590e-001,0.24004
9.765625e-001,0.24156
9.826660e-001,0.24308
9.887695e-001,0.24460
9.948730e-001,0.24612
1.000977e+000,0.24763
1.007080e+000,0.24915
1.013184e+000,0.25067
1.019287e+000,0.25219
1.025391e+000,0.25371
1.031494e+000,0.25523
1.037598e+000,0.25675
1.043701e+000,0.25827
1.049805e+000,0.25979
1.055908e+000,0.26131
1.062012e+000,0.26283
1.068115e+000,0.26435
1.074219e+000,0.26587
1.080322e+000,0.26738
1.086426e+000,0.26890
1.092529e+000,0.27042
1.098633e+000,0.27194
1.104736e+000,0.27346
1.110840e+000,0.27498
1.116943e+000,0.27650
1.123047e+000,0.27802
1.129150e+000,0.27954
1.135254e+000,0.28106
1.141357e+000,0.28258
1.147461e+000,0.28410
1.153564e+000,0.28562
1.159668e+000,0.28713
1.165771e+000,0.28865
1.171875e+000,0.29017
1.177979e+000,0.29169
1.184082e+000,0.29321
1.190186e+000,0.29473
1.196289e+000,0.29625
1.202393e+000,0.29777
1.208496e+000,0.29929
1.214600e+000,0.30081
1.220703e+000,0.30233
1.226807e+000,0.30385
1.232910e+000,0.30537
1.239014e+000,0.30688
1.245117e+000,0.30840
1.251221e+000,0.30992
1.257324e+000,0.31144
1.263428e+000,0.31296
1.269531e+000,0.31448
1.275635e+000,0.31600
1.281738e+000,0.31752
1.287842e+000,0.31904
1.293945e+000,0.32056
1.300049e+000,0.32208
1.306152e+000,0.32360
1.312256e+000,0.32512
1.318359e+000,0.32663
1.324463e+000,0.32815
1.330566e+000,0.32967
1.336670e+000,0.33119
1.342773e+000,0.33271
1.348877e+000,0.33423
1.354980e+000,0.33575
1.361084e+000,0.33727
1.367188e+000,0.33879
1.373291e+000,0.34031
1.379395e+000,0.34183
1.385498e+000,0.34335
1.391602e+000,0.34487
1.397705e+000,0.34638
1.403809e+000,0.34790
1.409912e+000,0.34942
1.416016e+000,0.35094
1.422119e+000,0.35246
1.428223e+000,0.35398
1.434326e+000,0.35550
1.440430e+000,0.35702
1.446533e+000,0.35854
1.452637e+000,0.36006
1.458740e+000,0.36158
1.464844e+000,0.36310
1.470947e+000,0.36462
1.477051e+000,0.36613
1.483154e+000,0.36765
1.489258e+000,0.36917
1.495361e+000,0.37069
1.501465e+000,0.37221
1.507568e+000,0.37373
1.513672e+000,0.37525
1.519775e+000,0.37677
1.525879e+000,0.37829
1.531982e+000,0.37981
1.538086e+000,0.38133
1.544189e+000,0.38285
1.550293e+000,0.38437
1.556396e+000,0.38588
1.562500e+000,0.38740
1.568604e+000,0.38892
1.574707e+000,0.39044
1.580811e+000,0.39196
1.586914e+000,0.39348
1.593018e+000,0.39500
1.599121e+000,0.39652
1.605225e+000,0.39804
1.611328e+000,0.39956
1.617432e+000,0.40108
1.623535e+000,0.40260
1.629639e+000,0.40412
1.635742e+000,0.40563
1.641846e+000,0.40715
1.647949e+000,0.40867
1.654053e+000,0.41019
1.660156e+000,0.41171
1.666260e+000,0.41323
1.672363e+000,0.41475
1.678467e+000,0.41627
1.684570e+000,0.41779
1.690674e+000,0.41931
1.696777e+000,0.42083
1.702881e+000,0.42235
1.708984e+000,0.42387
1.715088e+000,0.42538
1.721191e+000,0.42690
1.727295e+000,0.42842
1.733398e+000,0.42994
1.739502e+000,0.43146
1.745605e+000,0.43298
1.751709e+000,0.43450
1.757813e+000,0.43602
1.763916e+000,0.43754
1.770020e+000,0.43906
1.776123e+000,0.44058
1.782227e+000,0.44210
1.788330e+000,0.44362
1.794434e+000,0.44513
1.800537e+000,0.44665
1.806641e+000,0.44817
1.812744e+000,0.44969
1.818848e+000,0.45121
1.824951e+000,0.45273
1.831055e+000,0.45425
1.837158e+000,0.45577
1.843262e+000,0.45729
1.849365e+000,0.45881
1.855469e+000,0.46033
1.861572e+000,0.46185
1.867676e+000,0.46337
1.873779e+000,0.46488
1.879883e+000,0.46640
1.885986e+000,0.46792
1.892090e+000,0.46944
1.898193e+000,0.47096
1.904297e+000,0.47248
1.910400e+000,0.47400
1.916504e+000,0.47552
1.922607e+000,0.47704
1.928711e+000,0.47856
1.934814e+000,0.48008
1.940918e+000,0.48160
1.947021e+000,0.48312
1.953125e+000,0.48463
1.959229e+000,0.48615
1.965332e+000,0.48767
1.971436e+000,0.48919
1.977539e+000,0.49071
1.983643e+000,0.49223
1.989746e+000,0.49375
1.995850e+000,0.49527
2.001953e+000,0.49679
2.008057e+000,0.49831
2.014160e+000,0.49983
2.020264e+000,0.50135
2.026367e+000,0.50287
2.032471e+000,0.50438
2.038574e+000,0.50590
2.044678e+000,0.50742
2.050781e+000,0.50894
2.056885e+000,0.51046
2.062988e+000,0.51198
2.069092e+000,0.51350
2.075195e+000,0.51502
2.081299e+000,0.51654
2.087402e+000,0.51806
2.093506e+000,0.51958
2.099609e+000,0.52110
2.105713e+000,0.52262
2.111816e+000,0.52413
2.117920e+000,0.52565
2.124023e+000,0.52717
2.130127e+000,0.52869
2.136230e+000,0.53021
2.142334e+000,0.53173
2.148438e+000,0.53325
2.154541e+000,0.53477
2.160645e+000,0.53629
2.166748e+000,0.53781
2.172852e+000,0.53933
2.178955e+000,0.54085
2.185059e+000,0.54237
2.191162e+000,0.54388
2.197266e+000,0.54540
2.203369e+000,0.54692
2.209473e+000,0.54844
2.215576e+000,0.54996
2.221680e+000,0.55148
2.227783e+000,0.55300
2.233887e+000,0.55452
2.239990e+000,0.55604
2.246094e+000,0.55756
2.252197e+000,0.55908
2.258301e+000,0.56060
2.264404e+000,0.56212
2.270508e+000,0.56363
2.276611e+000,0.56515
2.282715e+000,0.56667
2.288818e+000,0.56819
2.294922e+000,0.56971
2.301025e+000,0.57123
2.307129e+000,0.57275
2.313232e+000,0.57427
2.319336e+000,0.57579
2.325439e+000,0.57731
2.331543e+000,0.57883
2.337646e+000,0.58035
2.343750e+000,0.58187
2.349854e+000,0.58338
2.355957e+000,0.58490
2.362061e+000,0.58642
2.368164e+000,0.58794
2.374268e+000,0.58946
2.380371e+000,0.59098
2.386475e+000,0.59250
2.392578e+000,0.59402
2.398682e+000,0.59554
2.404785e+000,0.59706
2.410889e+000,0.59858
2.416992e+000,0.60010
2.423096e+000,0.60162
2.429199e+000,0.60313
2.435303e+000,0.60465
2.441406e+000,0.60617
2.447510e+000,0.60769
2.453613e+000,0.60921
2.459717e+000,0.61073
2.465820e+000,0.61225
2.471924e+000,0.61377
2.478027e+000,0.61529
2.484131e+000,0.61681
2.490234e+000,0.61833
2.496338e+000,0.61985
2.502441e+000,0.62137
2.508545e+000,0.62288
2.514648e+000,0.62440
2.520752e+000,0.62592
2.526855e+000,0.62744
2.532959e+000,0.62896
2.539063e+000,0.63048
2.545166e+000,0.63200
2.551270e+000,0.63352
2.557373e+000,0.63504
2.563477e+000,0.63656
2.569580e+000,0.63808
2.575684e+000,0.63960
2.581787e+000,0.64112
2.587891e+000,0.64263
2.593994e+000,0.64415
2.600098e+000,0.64567
2.606201e+000,0.64719
2.612305e+000,0.64871
2.618408e+000,0.65023
2.624512e+000,0.65175
2.630615e+000,0.65327
2.636719e+000,0.65479
2.642822e+000,0.65631
2.648926e+000,0.65783
2.655029e+000,0.65935
2.661133e+000,0.66087
2.667236e+000,0.66238
2.673340e+000,0.66390
2.679443e+000,0.66542
2.685547e+000,0.66694
2.691650e+000,0.66846
2.697754e+000,0.66998
2.703857e+000,0.67150
2.709961e+000,0.67302
2.716064e+000,0.67454
2.722168e+000,0.67606
2.728271e+000,0.67758
2.734375e+000,0.67910
2.740479e+000,0.68062
2.746582e+000,0.68213
2.752686e+000,0.68365
2.758789e+000,0.68517
2.764893e+000,0.68669
2.770996e+000,0.68821
2.777100e+000,0.68973
2.783203e+000,0.69125
2.789307e+000,0.69277
2.795410e+000,0.69429
2.801514e+000,0.69581
2.807617e+000,0.69733
2.813721e+000,0.69885
2.819824e+000,0.70037
2.825928e+000,0.70188
2.832031e+000,0.70340
2.838135e+000,0.70492
2.844238e+000,0.70644
2.850342e+000,0.70796
2.856445e+000,0.70948
2.862549e+000,0.71100
2.868652e+000,0.71252
2.874756e+000,0.71404
2.880859e+000,0.71556
2.886963e+000,0.71708
2.893066e+000,0.71860
2.899170e+000,0.72012
2.905273e+000,0.72163
2.911377e+000,0.72315
2.917480e+000,0.72467
2.923584e+000,0.72619
2.929688e+000,0.72771
2.935791e+000,0.72923
2.941895e+000,0.73075
2.947998e+000,0.73227
2.954102e+000,0.73379
2.960205e+000,0.73531
2.966309e+000,0.73683
2.972412e+000,0.73835
2.978516e+000,0.73987
2.984619e+000,0.74138
2.990723e+000,0.74290
2.996826e+000,0.74442
3.002930e+000,0.74594
3.009033e+000,0.74746
3.015137e+000,0.74898
3.021240e+000,0.75050
3.027344e+000,0.75202
3.033447e+000,0.75354
3.039551e+000,0.75506
3.045654e+000,0.75658
3.051758e+000,0.75810
3.057861e+000,0.75962
3.063965e+000,0.76113
3.070068e+000,0.76265
3.076172e+000,0.76417
3.082275e+000,0.76569
3.088379e+000,0.76721
3.094482e+000,0.76873
3.100586e+000,0.77025
3.106689e+000,0.77177
3.112793e+000,0.77329
3.118896e+000,0.77481
3.125000e+000,0.77633
3.131104e+000,0.77785
3.137207e+000,0.77937
3.143311e+000,0.78088
3.149414e+000,0.78240
3.155518e+000,0.78392
3.161621e+000,0.78544
3.167725e+000,0.78696
3.173828e+000,0.78848
3.179932e+000,0.79000
3.186035e+000,0.79152
3.192139e+000,0.79304
3.198242e+000,0.79456
3.204346e+000,0.79608
3.210449e+000,0.79760
3.216553e+000,0.79912
3.222656e+000,0.80063
3.228760e+000,0.80215
3.234863e+000,0.80367
3.240967e+000,0.80519
3.247070e+000,0.80671
3.253174e+000,0.80823
3.259277e+000,0.80975
3.265381e+000,0.81127
3.271484e+000,0.81279
3.277588e+000,0.81431
3.283691e+000,0.81583
3.289795e+000,0.81735
3.295898e+000,0.81887
3.302002e+000,0.82038
3.308105e+000,0.82190
3.314209e+000,0.82342
3.320313e+000,0.82494
3.326416e+000,0.82646
3.332520e+000,0.82798
3.338623e+000,0.82950
3.344727e+000,0.83102
3.350830e+000,0.83254
3.356934e+000,0.83406
3.363037e+000,0.83558
3.369141e+000,0.83710
3.375244e+000,0.83862
3.381348e+000,0.84013
3.387451e+000,0.84165
3.393555e+000,0.84317
3.399658e+000,0.84469
3.405762e+000,0.84621
3.411865e+000,0.84773
3.417969e+000,0.84925
3.424072e+000,0.85077
3.430176e+000,0.85229
3.436279e+000,0.85381
3.442383e+000,0.85533
3.448486e+000,0.85685
3.454590e+000,0.85837
3.460693e+000,0.85988
3.466797e+000,0.86140
3.472900e+000,0.86292
3.479004e+000,0.86444
3.485107e+000,0.86596
3.491211e+000,0.86748
3.497314e+000,0.86900
3.503418e+000,0.87052
3.509521e+000,0.87204
3.515625e+000,0.87356
3.521729e+000,0.87508
3.527832e+000,0.87660
3.533936e+000,0.87812
3.540039e+000,0.87963
3.546143e+000,0.88115
3.552246e+000,0.88267
3.558350e+000,0.88419
3.564453e+000,0.88571
3.570557e+000,0.88723
3.576660e+000,0.88875
3.582764e+000,0.89027
3.588867e+000,0.89179
3.594971e+000,0.89331
3.601074e+000,0.89483
3.607178e+000,0.89635
3.613281e+000,0.89787
3.619385e+000,0.89938
3.625488e+000,0.90090
3.631592e+000,0.90242
3.637695e+000,0.90394
3.643799e+000,0.90546
3.649902e+000,0.90698
3.656006e+000,0.90850
3.662109e+000,0.91002
3.668213e+000,0.91154
3.674316e+000,0.91306
3.680420e+000,0.91458
3.686523e+000,0.91610
3.692627e+000,0.91762
3.698730e+000,0.91913
3.704834e+000,0.92065
3.710938e+000,0.92217
3.717041e+000,0.92369
3.723145e+000,0.92521
3.729248e+000,0.92673
3.735352e+000,0.92825
3.741455e+000,0.92977
3.747559e+000,0.93129
3.753662e+000,0.93281
3.759766e+000,0.93433
3.765869e+000,0.93585
3.771973e+000,0.93737
3.778076e+000,0.93888
3.784180e+000,0.94040
3.790283e+000,0.94192
3.796387e+000,0.94344
3.802490e+000,0.94496
3.808594e+000,0.94648
3.814697e+000,0.94800
3.820801e+000,0.94952
3.826904e+000,0.95104
3.833008e+000,0.95256
3.839111e+000,0.95408
3.845215e+000,0.95560
3.851318e+000,0.95712
3.857422e+000,0.95863
3.863525e+000,0.96015
3.869629e+000,0.96167
3.875732e+000,0.96319
3.881836e+000,0.96471
3.887939e+000,0.96623
3.894043e+000,0.96775
3.900146e+000,0.96927
3.906250e+000,0.97079
3.912354e+000,0.97231
3.918457e+000,0.97383
3.924561e+000,0.97535
3.930664e+000,0.97687
3.936768e+000,0.97838
3.942871e+000,0.97990
3.948975e+000,0.98142
3.955078e+000,0.98294
3.961182e+000,0.98446
3.967285e+000,0.98598
3.973389e+000,0.98750
3.979492e+000,0.98902
3.985596e+000,0.99054
3.991699e+000,0.99206
3.997803e+000,0.99358
4.003906e+000,0.99510
4.010010e+000,0.99662
4.016113e+000,0.99813
4.022217e+000,0.99965
4.028320e+000,1.00117
4.034424e+000,1.00269
4.040527e+000,1.00421
4.046631e+000,1.00573
4.052734e+000,1.00725
4.058838e+000,1.00877
4.064941e+000,1.01029
4.071045e+000,1.01181
4.077148e+000,1.01333
4.083252e+000,1.01485
4.089355e+000,1.01637
4.095459e+000,1.01788
4.101563e+000,1.01940
4.107666e+000,1.02092
4.113770e+000,1.02244
4.119873e+000,1.02396
4.125977e+000,1.02548
4.132080e+000,1.02700
4.138184e+000,1.02852
4.144287e+000,1.03004
4.150391e+000,1.03156
4.156494e+000,1.03308
4.162598e+000,1.03460
4.168701e+000,1.03612
4.174805e+000,1.03763
4.180908e+000,1.03915
4.187012e+000,1.04067
4.193115e+000,1.04219
4.199219e+000,1.04371
4.205322e+000,1.04523
4.211426e+000,1.04675
4.217529e+000,1.04827
4.223633e+000,1.04979
4.229736e+000,1.05131
4.235840e+000,1.05283
4.241943e+000,1.05435
4.248047e+000,1.05587
4.254150e+000,1.05738
4.260254e+000,1.05890
4.266357e+000,1.06042
4.272461e+000,1.06194
4.278564e+000,1.06346
4.284668e+000,1.06498
4.290771e+000,1.06650
4.296875e+000,1.06802
4.302979e+000,1.06954
4.309082e+000,1.07106
4.315186e+000,1.07258
4.321289e+000,1.07410
4.327393e+000,1.07562
4.333496e+000,1.07713
4.339600e+000,1.07865
4.345703e+000,1.08017
4.351807e+000,1.08169
4.357910e+000,1.08321
4.364014e+000,1.08473
4.370117e+000,1.08625
4.376221e+000,1.08777
4.382324e+000,1.08929
4.388428e+000,1.09081
4.394531e+000,1.09233
4.400635e+000,1.09385
4.406738e+000,1.09537
4.412842e+000,1.09688
4.418945e+000,1.09840
4.425049e+000,1.09992
4.431152e+000,1.10144
4.437256e+000,1.10296
4.443359e+000,1.10448
4.449463e+000,1.10600
4.455566e+000,1.10752
4.461670e+000,1.10904
4.467773e+000,1.11056
4.473877e+000,1.11208
4.479980e+000,1.11360
4.486084e+000,1.11512
4.492188e+000,1.11663
4.498291e+000,1.11815
4.504395e+000,1.11967
4.510498e+000,1.12119
4.516602e+000,1.12271
4.522705e+000,1.12423
4.528809e+000,1.12575
4.534912e+000,1.12727
4.541016e+000,1.12879
4.547119e+000,1.13031
4.553223e+000,1.13183
4.559326e+000,1.13335
4.565430e+000,1.13487
4.571533e+000,1.13638
4.577637e+000,1.13790
4.583740e+000,1.13942
4.589844e+000,1.14094
4.595947e+000,1.14246
4.602051e+000,1.14398
4.608154e+000,1.14550
4.614258e+000,1.14702
4.620361e+000,1.14854
4.626465e+000,1.15006
4.632568e+000,1.15158
4.638672e+000,1.15310
4.644775e+000,1.15462
4.650879e+000,1.15613
4.656982e+000,1.15765
4.663086e+000,1.15917
4.669189e+000,1.16069
4.675293e+000,1.16221
4.681396e+000,1.16373
4.687500e+000,1.16525
4.693604e+000,1.16677
4.699707e+000,1.16829
4.705811e+000,1.16981
4.711914e+000,1.17133
4.718018e+000,1.17285
4.724121e+000,1.17437
4.730225e+000,1.17588
4.736328e+000,1.17740
4.742432e+000,1.17892
4.748535e+000,1.18044
4.754639e+000,1.18196
4.760742e+000,1.18348
4.766846e+000,1.18500
4.772949e+000,1.18652
4.779053e+000,1.18804
4.785156e+000,1.18956
4.791260e+000,1.19108
4.797363e+000,1.19260
4.803467e+000,1.19412
4.809570e+000,1.19563
4.815674e+000,1.19715
4.821777e+000,1.19867
4.827881e+000,1.20019
4.833984e+000,1.20171
4.840088e+000,1.20323
4.846191e+000,1.20475
4.852295e+000,1.20627
4.858398e+000,1.20779
4.864502e+000,1.20931
4.870605e+000,1.21083
4.876709e+000,1.21235
4.882813e+000,1.21387
4.888916e+000,1.21538
4.895020e+000,1.21690
4.901123e+000,1.21842
4.907227e+000,1.21994
4.913330e+000,1.22146
4.919434e+000,1.22298
4.925537e+000,1.22450
4.931641e+000,1.22602
4.937744e+000,1.22754
4.943848e+000,1.22906
4.949951e+000,1.23058
4.956055e+000,1.23210
4.962158e+000,1.23362
4.968262e+000,1.23513
4.974365e+000,1.23665
4.980469e+000,1.23817
4.986572e+000,1.23969
4.992676e+000,1.24121
4.998779e+000,1.24273
5.004883e+000,1.24425
5.010986e+000,1.24577
5.017090e+000,1.24729
5.023193e+000,1.24881
5.029297e+000,1.25033
5.035400e+000,1.25185
5.041504e+000,1.25337
5.047607e+000,1.25488
5.053711e+000,1.25640
5.059814e+000,1.25792
5.065918e+000,1.25944
5.072021e+000,1.26096
5.078125e+000,1.26248
5.084229e+000,1.26400
5.090332e+000,1.26552
5.096436e+000,1.26704
5.102539e+000,1.26856
5.108643e+000,1.27008
5.114746e+000,1.27160
5.120850e+000,1.27312
5.126953e+000,1.27463
5.133057e+000,1.27615
5.139160e+000,1.27767
5.145264e+000,1.27919
5.151367e+000,1.28071
5.157471e+000,1.28223
5.163574e+000,1.28375
5.169678e+000,1.28527
5.175781e+000,1.28679
5.181885e+000,1.28831
5.187988e+000,1.28983
5.194092e+000,1.29135
5.200195e+000,1.29287
5.206299e+000,1.29438
5.212402e+000,1.29590
5.218506e+000,1.29742
5.224609e+000,1.29894
5.230713e+000,1.30046
5.236816e+000,1.30198
5.242920e+000,1.30350
5.249023e+000,1.30502
5.255127e+000,1.30654
5.261230e+000,1.30806
5.267334e+000,1.30958
